Time (s),Setpoint (turns),Encoder Position (turns)
6.29425048828125e-05,1.031665097021261,0.00010150671005249023
0.017905712127685547,1.0705868314090368,0.08353304862976074
0.03429079055786133,1.106302507832006,0.22541594505310059
0.051253557205200195,1.143224938031332,0.37932610511779785
0.06828856468200684,1.1802247726852049,0.5284423828125
0.08419513702392578,1.214678068108232,0.678011417388916
0.10011553764343262,1.2490468252413576,0.8261739015579224
0.11611175537109375,1.2834422217366293,0.9559391736984253
0.1321711540222168,1.3178134596568687,1.0566563606262207
0.1482701301574707,1.3520865424410828,1.1378878355026245
0.1654660701751709,1.3884679911077658,1.1997064352035522
0.18235397338867188,1.4239444234688925,1.2536287307739258
0.19935131072998047,1.4593718705376588,1.300567388534546
0.21633601188659668,1.4944683533722625,1.3456645011901855
0.23340463638305664,1.5294062648653501,1.3860998153686523
0.2503957748413086,1.5638301629786755,1.4237092733383179
0.2672116756439209,1.5975258034180029,1.459531545639038
0.2831246852874756,1.6290489682718747,1.495234727859497
0.2991154193878174,1.6603500165252831,1.5298229455947876
0.3151228427886963,1.691286387394944,1.560035228729248
0.3312242031097412,1.721983481863532,1.5974879264831543
0.34827351570129395,1.7540060058587068,1.6308246850967407
0.3652215003967285,1.7853247211980074,1.6609783172607422
0.38143348693847656,1.8147837526544488,1.6927604675292969
0.3983449935913086,1.844972339956464,1.7265236377716064
0.41530537605285645,1.8746716707565292,1.7596914768218994
0.43233680725097656,1.9038932267506505,1.7894678115844727
0.44942569732666016,1.932585850571234,1.818237543106079
0.4663259983062744,1.9603233867527798,1.8497123718261719
0.4821755886077881,1.985742063858993,1.8777084350585938
0.4981417655944824,2.010749711601132,1.9043951034545898
0.5141232013702393,2.0351644853816935,1.9301793575286865
0.5301635265350342,2.059033257223591,1.9578535556793213
0.5463089942932129,2.082399756395512,1.986863374710083
0.5632498264312744,2.10619044586293,2.014838457107544
0.5803747177124023,2.1294661607785677,2.0380892753601074
0.5972709655761719,2.151652605622203,2.060121536254883
0.614248514175415,2.173151106810435,2.0876972675323486
0.6313722133636475,2.194012249738771,2.113312244415283
0.6482999324798584,2.2138080754905967,2.134030818939209
0.6652765274047852,2.2328215654576877,2.153865337371826
0.6811797618865967,2.2498582557942766,2.1734588146209717
0.697119951248169,2.266171630559642,2.193406581878662
0.7131156921386719,2.281763786585362,2.213890552520752
0.7291445732116699,2.296596530078717,2.2337965965270996
0.7452883720397949,2.310725017592296,2.2526307106018066
0.76125168800354,2.323886771171038,2.2674708366394043
0.7772729396820068,2.336279311282393,2.280735969543457
0.7933037281036377,2.347852189124009,2.2929468154907227
0.8103609085083008,2.359249384310815,2.3062117099761963
0.8273897171020508,2.3696769100304533,2.3234403133392334
0.8443865776062012,2.3791301837346652,2.3411896228790283
0.8613169193267822,2.3875915656994366,2.3544416427612305
0.8772916793823242,2.3946961151218935,2.364301919937134
0.8932642936706543,2.4009415911955037,2.3706626892089844
0.9092295169830322,2.4063227831736422,2.375659227371216
0.9252467155456543,2.4108526844566582,2.380610704421997
0.9413650035858154,2.414529802253492,2.386969566345215
0.9583621025085449,2.4174470525288516,2.394247531890869
0.9754021167755127,2.419380048771722,2.4019060134887695
0.9923815727233887,2.4203172171374527,2.4078869819641113
1.009364128112793,2.420266420249252,2.412137746810913
1.0264225006103516,2.4192205797198287,2.4148330688476562
1.0433299541473389,2.417200888677214,2.416149377822876
1.059279441833496,2.4143997824814454,2.4163951873779297
1.0752873420715332,2.410715700843579,2.416297197341919
1.0912649631500244,2.4061690733874865,2.4160897731781006
1.1072413921356201,2.4007570560602534,2.415703058242798
1.123290777206421,2.394452126829412,2.414984703063965
1.1394152641296387,2.387245437532628,2.4134788513183594
1.1563889980316162,2.3787196921734974,2.411318302154541
1.17340087890625,2.3692139290174987,2.408499240875244
1.1904323101043701,2.3587404446437352,2.4044642448425293
1.207451581954956,2.34732559915399,2.3985490798950195
1.2243738174438477,2.3350435063678923,2.3912265300750732
1.2415072917938232,2.3216698488046235,2.3810617923736572
1.2583441734313965,2.3076173451120177,2.368703842163086
1.2742834091186523,2.2934914576133005,2.3569891452789307
1.2902820110321045,2.2785175035684273,2.348027467727661
1.306229829788208,2.262807327589591,2.3383498191833496
1.3222484588623047,2.246249619749986,2.326786756515503
1.3384425640106201,2.228728856159052,2.313580274581909
1.3554205894470215,2.209528364226309,2.2981443405151367
1.372396469116211,2.1894926696651282,2.276437997817993
1.3893916606903076,2.168609452341136,2.25329852104187
1.4064152240753174,2.14687902858745,2.2341692447662354
1.4233994483947754,2.124404078484073,2.217593193054199
1.4405078887939453,2.1009784267160754,2.1978206634521484
1.457362174987793,2.077145498635012,2.1774957180023193
1.4732763767242432,2.053968947768472,2.1547839641571045
1.4892470836639404,2.0300678281165285,2.1304192543029785
1.5052306652069092,2.005518292771613,2.106102228164673
1.5212478637695312,1.9803012657503443,2.0833826065063477
1.5373592376708984,1.9543301422964703,2.061734676361084
1.5535740852355957,1.92759554881759,2.0365307331085205
1.5705111026763916,1.8990498549368426,2.0056118965148926
1.5874977111816406,1.8698039007370575,1.978792428970337
1.6045112609863281,1.839913371966207,1.9533138275146484
1.6214730739593506,1.8095390191351077,1.9256852865219116
1.6385104656219482,1.7784733987394707,1.8950934410095215
1.6553997993469238,1.7471496876977708,1.8654379844665527
1.6712946891784668,1.7172098822629391,1.8364479541778564
1.687286376953125,1.6866564531650245,1.8091295957565308
1.7032334804534912,1.6557765515048826,1.7798033952713013
1.7192370891571045,1.6243934861096119,1.7459766864776611
1.7353699207305908,1.5923778838893912,1.7166686058044434
1.7513151168823242,1.5603806730712493,1.6844921112060547
1.7683639526367188,1.5258023178877387,1.6510021686553955
1.785348653793335,1.491001543139117,1.6179364919662476
1.8013689517974854,1.4578766422231306,1.5855906009674072
1.8174400329589844,1.4243755004403287,1.5531480312347412
1.8344676494598389,1.3886077336593314,1.5165724754333496
1.8515279293060303,1.352515197226729,1.4806888103485107
1.8684771060943604,1.3164293983031121,1.4488484859466553
1.884296178817749,1.282566957403645,1.4158546924591064
1.9002742767333984,1.2482068359963148,1.3795161247253418
1.9162523746490479,1.2137102298630844,1.3445799350738525
1.9322762489318848,1.1789995645926612,1.3114601373672485
1.9484219551086426,1.143930552779606,1.275181770324707
1.9654121398925781,1.1069496649347517,1.2361721992492676
1.9823453426361084,1.0700393284879688,1.201089859008789
1.9993531703948975,1.0329389408235314,1.1668167114257812
2.015366792678833,0.9980058922773873,1.1271682977676392
2.032467842102051,0.9607246374853332,1.0893443822860718
2.049403190612793,0.9238548815420596,1.0545904636383057
2.0663914680480957,0.8869464713668961,1.0186115503311157
2.0823192596435547,0.8524350672581129,0.9821138978004456
2.098257064819336,0.8180141767031992,0.9480067491531372
2.114236831665039,0.7836370227887426,0.9138208627700806
2.130265712738037,0.7493111301687813,0.8766282796859741
2.14635968208313,0.7150258696558028,0.8392794132232666
2.1633529663085938,0.6790447577409573,0.8045896291732788
2.1803643703460693,0.6432768250819441,0.7671413421630859
2.1973876953125,0.6077613336803586,0.7302608489990234
2.2144105434417725,0.572549814775365,0.6960843801498413
2.231424331665039,0.5376849181021554,0.6615272760391235
2.248378038406372,0.503293945671359,0.6261678338050842
2.264374017715454,0.47118878401129094,0.5921375155448914
2.280299663543701,0.43957617239184915,0.5604062080383301
2.2962565422058105,0.40827308900340575,0.5283119082450867
2.312246084213257,0.37729868742090733,0.49272069334983826
2.3282630443573,0.34668493065431494,0.46251189708709717
2.3444230556488037,0.3162371166791317,0.42979341745376587
2.361445188522339,0.2846637238536204,0.39614367485046387
2.378401756286621,0.2537427635620082,0.36205029487609863
2.3953909873962402,0.22331560878494794,0.3299909830093384
2.412386178970337,0.1934536394126149,0.3014964461326599
2.4293572902679443,0.1642299419909189,0.26866722106933594
2.4463460445404053,0.13559314761720354,0.23580217361450195
2.4633400440216064,0.10758579857856922,0.20962506532669067
2.4792864322662354,0.08190333704273488,0.18221014738082886
2.495248317718506,0.05679258093589049,0.15415436029434204
2.51125431060791,0.03222772683572923,0.12523293495178223
2.527261972427368,0.008292062924202502,0.09792548418045044
2.5433554649353027,-0.015119784717337013,0.07239717245101929
2.5604248046875,-0.03922001740280078,0.04928165674209595
2.5773963928222656,-0.06241914294915947,0.020883798599243164
2.59435772895813,-0.08482754297251346,-0.005649745464324951
2.6103711128234863,-0.10525662983953218,-0.02780526876449585
2.627471923828125,-0.12627855055883636,-0.04902857542037964
2.6443681716918945,-0.1462286124921797,-0.07117462158203125
2.6613845825195312,-0.16548208766356093,-0.09281814098358154
2.6773018836975098,-0.18271812745938204,-0.11490780115127563
2.6932623386383057,-0.19923876080278832,-0.1362387239933014
2.7092366218566895,-0.21499915848569012,-0.15456360578536987
2.7252697944641113,-0.2300284958058972,-0.1702955961227417
2.741375207901001,-0.24431998791937595,-0.18529409170150757
2.7585690021514893,-0.2586759236637669,-0.2001875638961792
2.7755753993988037,-0.2719497020390715,-0.21943342685699463
2.792482614517212,-0.28422407872081507,-0.2400495409965515
2.809441089630127,-0.29560346997258047,-0.2559833526611328
2.826443910598755,-0.3060672383417321,-0.2668576240539551
2.843428373336792,-0.3155671852689746,-0.27502089738845825
2.8593077659606934,-0.3235819237501547,-0.28290966153144836
2.875333786010742,-0.3308158796731384,-0.2929896116256714
2.891242742538452,-0.3371431541444616,-0.30421683192253113
2.907243251800537,-0.3426447698328582,-0.31390082836151123
2.9233176708221436,-0.34729775826193715,-0.3228425979614258
2.939422369003296,-0.35107800904189845,-0.3324750065803528
2.956434488296509,-0.3541102874630969,-0.3411364257335663
2.9734063148498535,-0.3561494779454515,-0.34710559248924255
2.9904162883758545,-0.3572037358243043,-0.35123229026794434
3.007375478744507,-0.3572679031869598,-0.3542989492416382
3.024416208267212,-0.3563397472959964,-0.3566240668296814
3.0415525436401367,-0.3544036550468395,-0.35820284485816956
3.0583548545837402,-0.3515303246494225,-0.3590117394924164
3.07435941696167,-0.3478975323941764,-0.35912930965423584
3.090292453765869,-0.34341503513779964,-0.3588877320289612
3.106267213821411,-0.3380562271240509,-0.35850948095321655
3.1224443912506104,-0.33175074265642623,-0.35747116804122925
3.139547109603882,-0.32412736356382255,-0.35583072900772095
3.1564667224884033,-0.31562288888998674,-0.3532106280326843
3.1734347343444824,-0.3061385013064867,-0.3491995334625244
3.190436601638794,-0.2956821299775906,-0.344018816947937
3.207394599914551,-0.28430983516030095,-0.3379705548286438
3.2244317531585693,-0.27194431422152343,-0.3306129574775696
3.241565704345703,-0.25856709493879815,-0.32212233543395996
3.2583117485046387,-0.24458971327381318,-0.31149858236312866
3.274317979812622,-0.23040440134654855,-0.29904836416244507
3.2903292179107666,-0.21541659453324263,-0.2864147126674652
3.3062710762023926,-0.19971013415393865,-0.2717409133911133
3.322399139404297,-0.18303464494152116,-0.25427111983299255
3.3394925594329834,-0.16451042111095238,-0.23994311690330505
3.3564605712890625,-0.14526931764288972,-0.22645694017410278
3.3734517097473145,-0.12516434137352095,-0.21248668432235718
3.3904926776885986,-0.10417288615154272,-0.19716322422027588
3.4074597358703613,-0.08246403498219523,-0.17513105273246765
3.4244544506073,-0.059926629382519615,-0.15043407678604126
3.441516399383545,-0.03651769914766109,-0.12880998849868774
3.458414316177368,-0.01257767726085511,-0.11069199442863464
3.474374771118164,0.010709985681390914,-0.08983489871025085
3.4903488159179688,0.03465988012819384,-0.06834885478019714
3.5062854290008545,0.05917906297716793,-0.044015586376190186
3.5222907066345215,0.08441711014480595,-0.01922208070755005
3.538403034210205,0.11042855239134353,0.006348252296447754
3.5543644428253174,0.13677812572400228,0.031380653381347656
3.571411371231079,0.16554038172268848,0.05444759130477905
3.5883901119232178,0.1948047903416272,0.08208960294723511
3.6044998168945312,0.22312188139801437,0.11264395713806152
3.6215157508850098,0.2535936657243077,0.14192038774490356
3.6398818492889404,0.2871062706065018,0.1699897050857544
3.656388998031616,0.31775630897677,0.1976454257965088
3.6723029613494873,0.3477594812191933,0.22806191444396973
3.688289165496826,0.3783289872042503,0.2592242956161499
3.7042977809906006,0.4093540697358557,0.28797709941864014
3.720378875732422,0.4409156659855018,0.31817322969436646
3.7373902797698975,0.474712874394931,0.3524101972579956
3.753626585006714,0.5073413125425217,0.3850840926170349
3.7704081535339355,0.541423564421131,0.4154868721961975
3.7865896224975586,0.5746098146981132,0.44870346784591675
3.803502082824707,0.6096103788354063,0.48406684398651123
3.8206679821014404,0.6454397899804882,0.5216096639633179
3.8390491008758545,0.6841161781870694,0.5532339811325073
3.8554201126098633,0.7188078476667036,0.5882235765457153
3.8713598251342773,0.7527844357514076,0.6232824325561523
3.887321710586548,0.7869833778417614,0.6570119857788086
3.9032886028289795,0.8213468417537397,0.6902161240577698
3.919386625289917,0.8561262991619636,0.7261013984680176
3.9355056285858154,0.8910634437613283,0.7642105221748352
3.952620029449463,0.9282561152299782,0.7979172468185425
3.9695935249328613,0.9652163586061672,0.834559440612793
3.9865000247955322,1.0020776080644798,0.8701975345611572
4.002590894699097,1.0371802175581404,0.9067056179046631
4.019562721252441,1.0742002983384136,0.9405807256698608
4.035479545593262,1.1088920758233056,0.9796014428138733
4.052517414093018,1.1459730929354806,1.0181334018707275
4.069521188735962,1.1828982044520824,1.0500774383544922
4.085425853729248,1.217339284063578,1.086151361465454
4.101409196853638,1.251833873099075,1.1226856708526611
4.117363214492798,1.2861267077451928,1.1572209596633911
4.13339638710022,1.3204285695285085,1.190969467163086
4.149588108062744,1.3548836018229182,1.2292485237121582
4.166593313217163,1.3908440919380043,1.267020583152771
4.183553695678711,1.4264544690674568,1.300315260887146
4.200571775436401,1.4619042418669066,1.3373090028762817
4.217500686645508,1.4968631999520237,1.3720417022705078
4.233517646789551,1.5296364218059106,1.4071141481399536
4.250568866729736,1.564178936097597,1.439225673675537
4.266615867614746,1.5963385353526809,1.4760860204696655
4.283454895019531,1.6296992172228217,1.5103193521499634
4.299389839172363,1.6608837729109076,1.541414737701416
4.315380811691284,1.6917815820003819,1.57241690158844
4.3314080238342285,1.7223314216447885,1.6074751615524292
4.347578763961792,1.7527110749690469,1.6403305530548096
4.364558219909668,1.7841089251148683,1.6718703508377075
4.381556749343872,1.815005812957262,1.7041023969650269
4.398528575897217,1.8452969400467103,1.73692786693573
4.415517568588257,1.8750394945687385,1.7693531513214111
4.432495594024658,1.9041627586675602,1.7971134185791016
4.449580907821655,1.932843508284456,1.8275724649429321
4.4665868282318115,1.960746393560988,1.8589887619018555
4.482469320297241,1.9862076003862015,1.886130690574646
4.498425483703613,2.01118857279051,1.9127788543701172
4.514399528503418,2.0355811107417745,1.9388214349746704
4.530427932739258,2.0594212827902734,1.966806411743164
4.546489238739014,2.0826568276139183,1.993957281112671
4.562552213668823,2.105225669196653,2.02060604095459
4.579547882080078,2.1283604661819755,2.042821168899536
4.596514940261841,2.15067661680896,2.0659070014953613
4.613580226898193,2.1723201128184773,2.094388484954834
4.630569934844971,2.1930535276360663,2.1186716556549072
4.647563934326172,2.212964657127091,2.1385340690612793
4.664520502090454,2.231992905718424,2.1584041118621826
4.680441379547119,2.249083996656378,2.1777775287628174
4.696409463882446,2.265460916205528,2.198455333709717
4.712405204772949,2.281087904164613,2.218600034713745
4.728423118591309,2.2959460797081728,2.238680362701416
4.744523525238037,2.3100741429178435,2.2575559616088867
4.761565685272217,2.3241375396661943,2.272181749343872
4.778562068939209,2.337240643456398,2.285031795501709
4.795587539672852,2.3494331511432183,2.2969517707824707
4.812527894973755,2.360629242098371,2.3115992546081543
4.829596519470215,2.37095831357014,2.330380439758301
4.846523284912109,2.380250738793388,2.3472933769226074
4.863551378250122,2.3886367790527454,2.359696388244629
4.879461050033569,2.3955948129926803,2.367753744125366
4.895431041717529,2.401722497896018,2.3734757900238037
4.911391973495483,2.406985239476036,2.3784055709838867
4.927418947219849,2.4113998484591272,2.384003162384033
4.9435200691223145,2.4149543019199107,2.3912386894226074
4.960571050643921,2.417753680929742,2.399204730987549
4.977545499801636,2.4195528153042662,2.40635085105896
4.994571924209595,2.420366181192827,2.4114990234375
5.011577367782593,2.4201870068823537,2.4149317741394043
5.028600454330444,2.4190153054942174,2.4171152114868164
5.045579195022583,2.416858510199786,2.418280839920044
5.06146240234375,2.413948831208701,2.418529510498047
5.077434539794922,2.4101551584464476,2.4183993339538574
5.0933756828308105,2.4055036291324043,2.4181573390960693
5.109389305114746,2.3999636118811996,2.417776584625244
5.125463962554932,2.3935317221428427,2.4169681072235107
5.141547918319702,2.3862270418272025,2.4152698516845703
5.158579111099243,2.377549730362883,2.41286039352417
5.175578832626343,2.3679278296626807,2.4098026752471924
5.1925578117370605,2.357366538665047,2.40554141998291
5.209591865539551,2.3458233702610842,2.3994715213775635
5.226572275161743,2.3333800859820153,2.39193058013916
5.243656396865845,2.3199261881148687,2.3818600177764893
5.260521173477173,2.3057349862885346,2.3695294857025146
5.276446580886841,2.29151321715166,2.357410430908203
5.292448282241821,2.2764292247713818,2.3478784561157227
5.308403253555298,2.2606062409492957,2.3376312255859375
5.324423789978027,2.2439415345967233,2.325838327407837
5.340555667877197,2.226385259628404,2.3124630451202393
5.35762357711792,2.2069752964427023,2.2966814041137695
5.374614953994751,2.186813173756012,2.2743821144104004
5.3916027545928955,2.165832628190465,2.2513725757598877
5.408609867095947,2.144019219351477,2.232666015625
5.425631761550903,2.121391909473621,2.216063976287842
5.442610740661621,2.098045461475058,2.195770740509033
5.459587335586548,2.07394386406708,2.175323724746704
5.4754698276519775,2.0507241002043854,2.152268886566162
5.491416692733765,2.026772057359373,2.1280598640441895
5.507411241531372,2.002121156183466,2.1035542488098145
5.523428201675415,1.9768218037578402,2.0811681747436523
5.539493083953857,1.9508457506274384,2.059755325317383
5.555618762969971,1.9241827070131914,2.034041404724121
5.572582721710205,1.8955157893561936,2.0042223930358887
5.588568449020386,1.8679401898646406,1.9784865379333496
5.604520320892334,1.8398972992128046,1.9539670944213867
5.620710611343384,1.8109164156864102,1.9259604215621948
5.637583017349243,1.7801784588623482,1.895615577697754
5.654626846313477,1.7485944073462836,1.8640336990356445
5.671725034713745,1.7163932507296795,1.8340613842010498
5.688452243804932,1.6844125678365807,1.8072386980056763
